
time,time ns,angle,cadence,motorTargetCadence,pid,corrente effettiva Quad Sx,corrente effettiva Glut Sx,corrente effettiva Hams Sx,corrente effettiva Gastro Sx,corrente effettiva Quad Dx,corrente effettiva Glut Dx,corrente effettiva Hams Dx,corrente effettiva Gastro Dx,duty_cycle,motor_current,stimDistance,totalDistance,linearVelocity,powerLeft,powerRight,newDataLeft,newDataRight,connectedLeft,connectedRight,heart-rate

136511,-927705813,178.674,0,0,0,0,0,0,0,0,0,0,0,0,-0,0,35.632,2.0873,0,0,0,0,1,1,0
136521,-918592128,178.674,0,0,0,0,0,0,0,0,0,0,0,0,-0,0,35.632,2.0873,0,0,0,0,1,1,0
136531,-908589942,178.652,0,0,0,0,0,0,0,0,0,0,0,0,-0,0,35.632,2.0873,0,0,0,0,1,1,0
136541,-898591405,178.608,0,0,0,0,0,0,0,0,0,0,0,0,-0,0,35.632,2.0873,0,0,0,0,1,1,0
136551,-888591665,178.718,0,0,0,0,0,0,0,0,0,0,0,0,-0,0,35.632,2.0873,0,0,0,0,1,1,0
136561,-878591850,178.674,0,0,0,0,0,0,0,0,0,0,0,0,-0,0,35.632,2.0873,0,0,0,0,1,1,0
136571,-868591609,178.696,0,0,0,0,0,0,0,0,0,0,0,0,-0,0,35.632,2.0873,0,0,0,0,1,1,0
136581,-858591554,178.696,0,0,0,0,0,0,0,0,0,0,0,0,-0,0,35.632,2.0873,0,0,0,0,1,1,0
136591,-848591739,178.718,0,0,0,0,0,0,0,0,0,0,0,0,-0,0,35.632,2.0873,0,0,0,0,1,1,0
136616,-822775646,178.718,0,0,0,0,0,0,0,0,0,0,0,0,-0,0,35.632,2.0873,0,0,0,0,1,1,0
136617,-822305387,178.718,0,0,0,0,0,0,0,0,0,0,0,0,-0,0,35.632,2.0873,0,0,0,0,1,1,0
136621,-818590961,178.74,0,0,0,0,0,0,0,0,0,0,0,0,-0,0,35.632,2.0873,0,0,0,0,1,1,0
136631,-808591294,178.652,0,0,0,0,0,0,0,0,0,0,0,0,-0,0,35.632,2.0873,0,0,0,0,1,1,0
136641,-798591887,178.696,0,0,0,0,0,0,0,0,0,0,0,0,-0,0,35.632,2.0873,0,0,0,0,1,1,0
136651,-788591405,178.696,0,0,0,0,0,0,0,0,0,0,0,0,-0,0,35.632,2.0873,0,0,0,0,1,1,0
136661,-778591961,178.74,0,0,0,0,0,0,0,0,0,0,0,0,-0,0,35.632,2.0873,0,0,0,0,1,1,0
136671,-768591850,178.718,0,0,0,0,0,0,0,0,0,0,0,0,-0,0,35.632,2.0873,0,0,0,0,1,1,0
136681,-758592202,178.652,0,0,0,0,0,0,0,0,0,0,0,0,-0,0,35.632,2.0873,0,0,0,0,1,1,0
136691,-748592146,178.696,0,0,0,0,0,0,0,0,0,0,0,0,-0,0,35.632,2.0873,0,0,0,0,1,1,0
136701,-738590961,178.674,0,0,0,0,0,0,0,0,0,0,0,0,-0,0,35.632,2.0873,0,0,0,0,1,1,0
136711,-728591628,178.652,0,0,0,0,0,0,0,0,0,0,0,0,-0,0,35.632,2.0873,0,0,0,0,1,1,0
136721,-718591702,178.696,0,0,0,0,0,0,0,0,0,0,0,0,-0,0,35.632,2.0873,0,0,0,0,1,1,0
136731,-708590517,178.652,0,0,0,0,0,0,0,0,0,0,0,0,-0,0,35.632,2.0873,0,0,0,0,1,1,0
136741,-698591980,178.74,0,0,0,0,0,0,0,0,0,0,0,0,-0,0,35.632,2.0873,0,0,0,0,1,1,0
136751,-688591739,178.652,0,0,0,0,0,0,0,0,0,0,0,0,-0,0,35.632,2.0873,0,0,0,0,1,1,0
136761,-678580683,178.63,0,5,0,0,0,0,0,0,0,0,0,0,-0,0,35.632,2.0873,0,0,0,0,1,1,0
136771,-668591146,178.696,0,5,0,0,0,0,0,0,0,0,0,0,-0,0,35.632,2.0873,0,0,0,0,1,1,0
136781,-658591850,178.784,0,5,0,0,0,0,0,0,0,0,0,0,-0,0,35.632,2.0873,0,0,0,0,1,1,0
136791,-648591794,178.696,0,5,0,0,0,0,0,0,0,0,0,0,-0,0,35.632,2.0873,0,0,0,0,1,1,0
136814,-624728757,178.696,0,5,0,0,0,0,0,0,0,0,0,4,-0,0,35.632,2.0873,0,0,0,0,1,1,0
136815,-624263961,178.652,0,5,0,0,0,0,0,0,0,0,0,4,-0,0,35.632,2.0873,0,0,0,0,1,1,0
136821,-618591350,178.674,0,5,0,0,0,0,0,0,0,0,0,4,-0,0,35.632,2.0873,0,0,0,0,1,1,0
136831,-608589924,178.696,0,5,0,0,0,0,0,0,0,0,0,4,-0,0,35.632,2.0873,0,0,0,0,1,1,0
136841,-598591980,178.74,0,5,0,0,0,0,0,0,0,0,0,4,-0,0,35.632,2.0873,0,0,0,0,1,1,0
136851,-588591720,178.674,0,5,0,0,0,0,0,0,0,0,0,4,-0,0,35.632,2.0873,0,0,0,0,1,1,0
136861,-578591980,178.674,0,5,0,0,0,0,0,0,0,0,0,4,-0,0,35.632,2.0873,0,0,0,0,1,1,0
136871,-568529461,178.696,0,5,0,0,0,0,0,0,0,0,0,4,-0,0,35.632,2.0873,0,0,0,0,1,1,0
136881,-558526887,178.696,0,5,0,0,0,0,0,0,0,0,0,4,-0,0,35.632,2.0873,0,0,0,0,1,1,0
136891,-548529702,178.652,0,5,0,0,0,0,0,0,0,0,0,4,-0,0,35.632,2.0873,0,0,0,0,1,1,0
136901,-538528683,178.674,0,5,0,0,0,0,0,0,0,0,0,4,-0,0,35.632,2.0873,0,0,0,0,1,1,0
136911,-528529887,178.652,0,5,0,0,0,0,0,0,0,0,0,4,-0,0,35.632,2.0873,0,0,0,0,1,1,0
136921,-518529591,178.74,0,5,0,0,0,0,0,0,0,0,0,4,-0,0,35.632,2.0873,0,0,0,0,1,1,0
136931,-508526202,178.696,0,5,0,0,0,0,0,0,0,0,0,4,-0,0,35.632,2.0873,0,0,0,0,1,1,0
136941,-498529887,178.63,0,5,0,0,0,0,0,0,0,0,0,4,-0,0,35.632,2.0873,0,0,0,0,1,1,0
136951,-488529850,178.674,0,5,0,0,0,0,0,0,0,0,0,4,-0,0,35.632,2.0873,0,0,0,0,1,1,0
136961,-478530128,178.674,0,5,0,0,0,0,0,0,0,0,0,4,-0,0,35.632,2.0873,0,0,0,0,1,1,0
136971,-468543239,178.696,0,5,0,0,0,0,0,0,0,0,0,4,-0,0,35.632,2.0873,0,0,0,0,1,1,0
136981,-458544702,178.674,0,5,0,0,0,0,0,0,0,0,0,4,-0,0,35.632,2.0873,0,0,0,0,1,1,0
136991,-448544665,178.674,0,5,0,0,0,0,0,0,0,0,0,4,-0,0,35.632,2.0873,0,0,0,0,1,1,0
137012,-427635017,178.674,0,5,0,0,0,0,0,0,0,0,0,5,0.45,0,35.632,2.0873,0,0,0,0,1,1,0
137013,-425873406,178.762,0,5,0,0,0,0,0,0,0,0,0,5,0.45,0,35.632,2.0873,0,0,0,0,1,1,0
137021,-418536165,178.74,0,5,0,0,0,0,0,0,0,0,0,5,0.45,0,35.632,2.0873,0,0,0,0,1,1,0
137031,-408534924,178.718,0,5,0,0,0,0,0,0,0,0,0,5,0.45,0,35.632,2.0873,0,0,0,0,1,1,0
137041,-398544258,178.696,0,5,0,0,0,0,0,0,0,0,0,5,0.45,0,35.632,2.0873,0,0,0,0,1,1,0
137051,-388544498,178.696,0,5,0,0,0,0,0,0,0,0,0,5,0.45,0,35.632,2.0873,0,0,0,0,1,1,0
137061,-378544665,178.718,0,5,0,0,0,0,0,0,0,0,0,5,0.45,0,35.632,2.0873,0,0,0,0,1,1,0
137071,-368529146,178.784,0,5,0,0,0,0,0,0,0,0,0,5,0.45,0,35.632,2.0873,0,0,0,0,1,1,0
137081,-358527443,178.674,0,5,0,0,0,0,0,0,0,0,0,5,0.45,0,35.632,2.0873,0,0,0,0,1,1,0
137091,-348539313,178.674,0,5,0,0,0,0,0,0,0,0,0,5,0.45,0,35.632,2.0873,0,0,0,0,1,1,0
137101,-338537072,178.674,0,5,0,0,0,0,0,0,0,0,0,5,0.45,0,35.632,2.0873,0,0,0,0,1,1,0
137111,-328537980,178.718,0,5,0,0,0,0,0,0,0,0,0,5,0.45,0,35.632,2.0873,0,0,0,0,1,1,0
137121,-318530461,178.74,0,5,0,0,0,0,0,0,0,0,0,5,0.45,0,35.632,2.0873,0,0,0,0,1,1,0
137131,-308538739,178.718,0,5,0,0,0,0,0,0,0,0,0,5,0.45,0,35.632,2.0873,0,0,0,0,1,1,0
137141,-298550332,178.74,0,5,0,0,0,0,0,0,0,0,0,5,0.45,0,35.632,2.0873,0,0,0,0,1,1,0
137151,-288547332,178.784,0,5,0,0,0,0,0,0,0,0,0,5,0.45,0,35.632,2.0873,0,0,0,0,1,1,0
137161,-278515054,178.916,0,5,0,0,0,0,0,0,0,0,0,5,0.45,0,35.632,2.0873,0,0,0,0,1,1,0
137171,-268527517,179.048,0,10,0,0,0,0,0,0,0,0,0,5,0.45,0,35.632,2.0873,0,0,0,0,1,1,0
137181,-258569498,178.916,0,10,0,0,0,0,0,0,0,0,0,5,0.45,0,35.632,2.0873,0,0,0,0,1,1,0
137191,-248525072,178.982,0,10,0,0,0,0,0,0,0,0,0,5,0.45,0,35.632,2.0873,0,0,0,0,1,1,0
137209,-230641443,178.916,0,10,0,0,0,0,0,0,0,0,0,20,0.44847,0,35.632,2.0873,0,0,0,0,1,1,0
137211,-228570572,179.004,0,10,0,0,0,0,0,0,0,0,0,20,0.44847,0,35.632,2.0873,0,0,0,0,1,1,0
137221,-218570795,178.96,0,10,0,0,0,0,0,0,0,0,0,20,0.44847,0,35.632,2.0873,0,0,0,0,1,1,0
137231,-208571184,178.938,0,10,0,0,0,0,0,0,0,0,0,20,0.44847,0,35.632,2.0873,0,0,0,0,1,1,0
137241,-198571109,179.004,0,10,0,0,0,0,0,0,0,0,0,20,0.44847,0,35.632,2.0873,0,0,0,0,1,1,0
137251,-188569961,179.07,0,10,0,0,0,0,0,0,0,0,0,20,0.44847,0,35.632,2.0873,0,0,0,0,1,1,0
137261,-178571350,179.224,0,10,0,0,0,0,0,0,0,0,0,20,0.44847,0,35.632,2.0873,0,0,0,0,1,1,0
137271,-168538461,179.399,0,10,0,0,0,0,0,0,0,0,0,20,0.44847,0,35.632,2.0873,0,0,0,0,1,1,0
137281,-158539702,179.619,0,10,0,0,0,0,0,0,0,0,0,20,0.44847,0,35.632,2.0873,0,0,0,0,1,1,0
137291,-148539295,179.883,0,10,0,0,0,0,0,0,0,0,0,20,0.44847,0,35.632,2.0873,0,0,0,0,1,1,0
137301,-138537739,180.037,0,10,0,0,0,0,0,0,0,0,0,20,0.44847,0,35.632,2.0873,0,0,0,0,1,1,0
137311,-128539572,180.125,0,10,0,0,0,0,0,0,0,0,0,20,0.44847,0,35.632,2.0873,0,0,0,0,1,1,0
137321,-118539647,180.19,0,10,0,0,0,0,0,0,0,0,0,20,0.44847,0,35.632,2.0873,0,0,0,0,1,1,0
137331,-108539424,180.366,0,10,0,0,0,0,0,0,0,0,0,20,0.44847,0,35.632,2.0873,0,0,0,0,1,1,0
137341,-98539924,180.41,0,10,0,0,0,0,0,0,0,0,0,20,0.44847,0,35.632,2.0873,0,0,0,0,1,1,0
137351,-88539369,180.388,0,10,0,0,0,0,0,0,0,0,0,20,0.44847,0,35.632,2.0873,0,0,0,0,1,1,0
137361,-78540054,180.41,0,10,0,0,0,0,0,0,0,0,0,20,0.44847,0,35.632,2.0873,0,0,0,0,1,1,0
137371,-68538498,180.344,0,10,0,0,0,0,0,0,0,0,0,20,0.44847,0,35.632,2.0873,0,0,0,0,1,1,0
137381,-58539850,180.498,0,10,0,0,0,0,0,0,0,0,0,20,0.44847,0,35.632,2.0873,0,0,0,0,1,1,0
137391,-48539517,180.41,0,10,0,0,0,0,0,0,0,0,0,20,0.44847,0,35.632,2.0873,0,0,0,0,1,1,0
137406,-33558036,180.476,0,10,0,0,0,0,0,0,0,0,0,22,11.7443,0,35.632,2.0873,0,0,0,0,1,1,0
137411,-28538221,180.476,0,10,0,0,0,0,0,0,0,0,0,22,11.7443,0,35.632,2.0873,0,0,0,0,1,1,0
137421,-18539387,180.52,0,10,0,0,0,0,0,0,0,0,0,22,11.7443,0,35.632,2.0873,0,0,0,0,1,1,0
137431,-8539628,180.652,0,10,0,0,0,0,0,0,0,0,0,22,11.7443,0,35.632,2.0873,0,0,0,0,1,1,0
137441,1460464,180.718,0,10,0,0,0,0,0,0,0,0,0,22,11.7443,0,35.632,2.0873,0,0,0,0,1,1,0
137451,11457742,180.828,0,10,0,0,0,0,0,0,0,0,0,22,11.7443,0,35.632,2.0873,0,0,0,0,1,1,0
137461,21459872,180.938,0,10,0,0,0,0,0,0,0,0,0,22,11.7443,0,35.632,2.0873,0,0,0,0,1,1,0
137471,31461761,181.069,0,10,0,0,0,0,0,0,0,0,0,22,11.7443,0,35.632,2.0873,0,0,0,0,1,1,0
137481,41484279,181.311,0,10,0,0,0,0,0,0,0,0,0,22,11.7443,0,35.632,2.0873,0,0,0,0,1,1,0
137491,51500446,181.509,0,15,0,0,0,0,0,0,0,0,0,22,11.7443,0,35.632,2.0873,0,0,0,0,1,1,0
137501,61473798,181.663,0,15,0,0,0,0,0,0,0,0,0,22,11.7443,0,35.632,2.0873,0,0,0,0,1,1,0
137511,71470668,181.86,0,15,0,0,0,0,0,0,0,0,0,22,11.7443,0,35.632,2.0873,0,0,0,0,1,1,0
137521,81470557,182.08,0,15,0,0,0,0,0,0,0,0,0,22,11.7443,0,35.632,2.0873,0,0,0,0,1,1,0
137531,91470057,182.146,0,15,0,0,0,0,0,0,0,0,0,22,11.7443,0,35.632,2.0873,0,0,0,0,1,1,0
137541,101471057,182.322,0,15,0,0,0,0,0,0,0,0,0,22,11.7443,0,35.632,2.0873,0,0,0,0,1,1,0
137551,111469983,182.476,0,15,0,0,0,0,0,0,0,0,0,22,11.7443,0,35.632,2.0873,0,0,0,0,1,1,0
137561,121469964,182.673,0,15,0,0,0,0,0,0,0,0,0,22,11.7443,0,35.632,2.0873,0,0,0,0,1,1,0
137571,131458353,182.783,0,15,0,0,0,0,0,0,0,0,0,22,11.7443,0,35.632,2.0873,0,0,0,0,1,1,0
137581,141454927,182.959,0,15,0,0,0,0,0,0,0,0,0,22,11.7443,0,35.632,2.0873,0,0,0,0,1,1,0
137591,151455298,183.179,0,15,0,0,0,0,0,0,0,0,0,22,11.7443,0,35.632,2.0873,0,0,0,0,1,1,0
137603,163447946,183.354,0,15,0,0,0,0,0,0,0,0,0,27,24.0938,0,35.632,2.0873,0,0,0,0,1,1,0
137611,171455613,183.53,0,15,0,0,0,0,0,0,0,0,0,27,24.0938,0,35.632,2.0873,0,0,0,0,1,1,0
137621,181455594,183.794,0,15,0,0,0,0,0,0,0,0,0,27,24.0938,0,35.632,2.0873,0,0,0,0,1,1,0
137631,191456001,183.948,0,15,0,0,0,0,0,0,0,0,0,27,24.0938,0,35.632,2.0873,0,0,0,0,1,1,0
137641,201455650,184.167,0,15,0,0,0,0,0,0,0,0,0,27,24.0938,0,35.632,2.0873,0,0,0,0,1,1,0
137651,211455483,184.431,0,15,0,0,0,0,0,0,0,0,0,27,24.0938,0,35.632,2.0873,0,0,0,0,1,1,0
137661,221456001,184.761,0,15,0,0,0,0,0,0,0,0,0,27,24.0938,0,35.632,2.0873,0,0,0,0,1,1,0
137671,231471316,185.024,0,15,0,0,0,0,0,0,0,0,0,27,24.0938,0,35.632,2.0873,0,0,0,0,1,1,0
137681,241469909,185.31,0,15,0,0,0,0,0,0,0,0,0,27,24.0938,0,35.632,2.0873,0,0,0,0,1,1,0
137691,251469983,185.64,0,15,0,0,0,0,0,0,0,0,0,27,24.0938,0,35.632,2.0873,0,0,0,0,1,1,0
137701,261470335,185.837,0,15,0,0,0,0,0,0,0,0,0,27,24.0938,0,35.632,2.0873,0,0,0,0,1,1,0
137711,271470261,186.145,0,15,0,0,0,0,0,0,0,0,0,27,24.0938,0,35.632,2.0873,0,0,0,0,1,1,0
137721,281470020,186.453,0,15,0,0,0,0,0,0,0,0,0,27,24.0938,0,35.632,2.0873,0,0,0,0,1,1,0
137731,291469446,186.716,0,15,0,0,0,0,0,0,0,0,0,27,24.0938,0,35.632,2.0873,0,0,0,0,1,1,0
137741,301471094,187.002,0,15,0,0,0,0,0,0,0,0,0,27,24.0938,0,35.632,2.0873,0,0,0,0,1,1,0
137751,311477149,187.266,0,15,0,0,0,0,0,0,0,0,0,27,24.0938,0,35.632,2.0873,0,0,0,0,1,1,0
137761,321470224,187.529,0,15,0,0,0,0,0,0,0,0,0,27,24.0938,0,35.632,2.0873,0,0,0,0,1,1,0
137771,331457316,187.771,0,15,0,0,0,0,0,0,0,0,0,27,24.0938,0,35.632,2.0873,0,0,0,0,1,1,0
137781,341455742,188.035,0,15,0,0,0,0,0,0,0,0,0,27,24.0938,0,35.632,2.0873,0,0,0,0,1,1,0
137791,351455427,188.342,0,15,0,0,0,0,0,0,0,0,0,27,24.0938,0,35.632,2.0873,0,0,0,0,1,1,0
137809,369485298,188.738,0,15,0,0,0,0,0,0,0,0,0,30,47.2309,0,35.632,2.0873,0,0,0,0,1,1,0
137811,371457798,189.023,0,15,0,0,0,0,0,0,0,0,0,30,47.2309,0,35.632,2.0873,0,0,0,0,1,1,0
137821,381455983,189.419,0,15,0,0,0,0,0,0,0,0,0,30,47.2309,0,35.632,2.0873,0,0,0,0,1,1,0
137831,391456038,189.683,0,15,0,0,0,0,0,0,0,0,0,30,47.2309,0,35.632,2.0873,0,0,0,0,1,1,0
137841,401455668,190.034,0,15,0,0,0,0,0,0,0,0,0,30,47.2309,0,35.632,2.0873,0,0,0,0,1,1,0
137851,411455409,190.43,0,15,0,0,0,0,0,0,0,0,0,30,47.2309,0,35.632,2.0873,0,0,0,0,1,1,0
137861,421455686,190.759,0,15,0,0,0,0,0,0,0,0,0,30,47.2309,0,35.632,2.0873,0,0,0,0,1,1,0
137871,431472483,191.287,0,15,0,0,0,0,0,0,0,0,0,30,47.2309,0,35.632,2.0873,0,0,0,0,1,1,0
137881,441470835,191.594,0,15,0,0,0,0,0,0,0,0,0,30,47.2309,0,35.632,2.0873,0,0,0,0,1,1,0
137891,451470686,191.968,0,15,0,0,0,0,0,0,0,0,0,30,47.2309,0,35.632,2.0873,0,0,0,0,1,1,0
137901,461470760,192.451,0,15,0,0,0,0,0,0,0,0,0,30,47.2309,0,35.632,2.0873,0,0,0,0,1,1,0
137911,471483483,192.781,0,15,0,0,0,0,0,0,0,0,0,30,47.2309,0,35.632,2.0873,0,0,0,0,1,1,0
137921,481501649,193.22,0,20,0,0,0,0,0,0,0,0,0,30,47.2309,0,35.632,2.0873,0,0,0,0,1,1,0
137931,491480112,193.594,0,20,0,0,0,0,0,0,0,0,0,30,47.2309,0,35.632,2.0873,0,0,0,0,1,1,0
137941,501472668,193.967,0,20,0,0,0,0,0,0,0,0,0,30,47.2309,0,35.632,2.0873,0,0,0,0,1,1,0
137951,511471538,194.429,0,20,0,0,0,0,0,0,0,0,0,30,47.2309,0,35.632,2.0873,0,0,0,0,1,1,0
137961,521470446,194.824,0,20,0,0,0,0,0,0,0,0,0,30,47.2309,0,35.632,2.0873,0,0,0,0,1,1,0
137971,531459020,195.242,0,20,0,0,0,0,0,0,0,0,0,30,47.2309,0,35.632,2.0873,0,0,0,0,1,1,0
137981,541456057,195.681,0,20,0,0,0,0,0,0,0,0,0,30,47.2309,0,35.632,2.0873,0,0,0,0,1,1,0
137991,551455779,196.121,0,20,0,0,0,0,0,0,0,0,0,30,47.2309,0,35.632,2.0873,0,0,0,0,1,1,0
138006,566545168,196.516,0,20,0,0,0,0,0,0,0,0,0,35,71.2746,0,35.632,2.0873,0,0,0,0,1,1,0
138011,571464372,197.043,0,20,0,0,0,0,0,0,0,0,0,35,71.2746,0,35.632,2.0873,0,0,0,0,1,1,0
138021,581465723,197.439,0,20,0,0,0,0,0,0,0,0,0,35,71.2746,0,35.632,2.0873,0,0,0,0,1,1,0
138031,591455334,197.878,0,20,0,0,0,0,0,0,0,0,0,35,71.2746,0,35.632,2.0873,0,0,0,0,1,1,0
138041,601455242,198.428,0,20,0,0,0,0,0,0,0,0,0,35,71.2746,0,35.632,2.0873,0,0,0,0,1,1,0
138051,611455705,198.823,0,20,0,0,0,0,0,0,0,0,0,35,71.2746,0,35.632,2.0873,0,0,0,0,1,1,0
138061,621456464,199.417,0,20,0,0,0,0,0,0,0,0,0,35,71.2746,0,35.632,2.0873,0,0,0,0,1,1,0
138071,631474520,199.922,0,20,0,0,0,0,0,0,0,0,0,35,71.2746,0,35.632,2.0873,0,0,0,0,1,1,0
138081,641469205,200.471,0,20,0,0,0,0,0,0,0,0,0,35,71.2746,0,35.632,2.0873,0,0,0,0,1,1,0
138091,651469686,200.977,0,20,0,0,0,0,0,0,0,0,0,35,71.2746,0,35.632,2.0873,0,0,0,0,1,1,0
138101,661469742,201.504,0,20,0,0,0,0,0,0,0,0,0,35,71.2746,0,35.632,2.0873,0,0,0,0,1,1,0
138111,671470501,202.031,0,20,0,0,0,0,0,0,0,0,0,35,71.2746,0,35.632,2.0873,0,0,0,0,1,1,0
138121,681470020,202.559,0,20,0,0,0,0,0,0,0,0,0,35,71.2746,0,35.632,2.0873,0,0,0,0,1,1,0
138131,691469816,203.064,0,20,0,0,0,0,0,0,0,0,0,35,71.2746,0,35.632,2.0873,0,0,0,0,1,1,0
138141,701470242,203.569,0,20,0,0,0,0,0,0,0,0,0,35,71.2746,0,35.632,2.0873,0,0,0,0,1,1,0
138151,711469297,204.053,0,20,0,0,0,0,0,0,0,0,0,35,71.2746,0,35.632,2.0873,0,0,0,0,1,1,0
138161,721491260,204.712,0,20,0,0,0,0,0,0,0,0,0,35,71.2746,0,35.632,2.0873,0,0,0,0,1,1,0
138171,731484223,205.305,0,20,0,0,0,0,0,0,0,0,0,35,71.2746,0,35.632,2.0873,0,0,0,0,1,1,0
138181,741460408,205.789,0,20,0,0,0,0,0,0,0,0,0,35,71.2746,0,35.632,2.0873,0,0,0,0,1,1,0
138191,751466575,206.36,0,20,0,0,0,0,0,0,0,0,0,35,71.2746,0,35.632,2.0873,0,0,0,0,1,1,0
138202,762575520,206.931,0,20,0,0,0,0,0,0,0,0,0,39,104.58,0,35.632,2.0873,0,0,0,0,1,1,0
138211,771472223,207.437,0,20,0,0,0,0,0,0,0,0,0,39,104.58,0,35.632,2.0873,0,0,0,0,1,1,0
138221,781464223,207.986,0,20,0,0,0,0,0,0,0,0,0,39,104.58,0,35.632,2.0873,0,0,0,0,1,1,0
138231,791461020,208.601,0,20,0,0,0,0,0,0,0,0,0,39,104.58,0,35.632,2.0873,0,0,0,0,1,1,0
138241,801466260,209.216,0,20,0,0,0,0,0,0,0,0,0,39,104.58,0,35.632,2.0873,0,0,0,0,1,1,0
138251,811474834,209.81,0,20,0,0,0,0,0,0,0,0,0,39,104.58,0,35.632,2.0873,0,0,0,0,1,1,0
138261,821456649,210.403,0,20,0,0,0,0,0,0,0,0,0,39,104.58,0,35.632,2.0873,0,0,0,0,1,1,0
138271,831407982,211.062,0,20,0,0,0,0,0,0,0,0,0,39,104.58,0,35.632,2.0873,0,0,0,0,1,1,0
138281,841409149,211.743,0,20,0,0,0,0,0,0,0,0,0,39,104.58,0,35.632,2.0873,0,0,0,0,1,1,0
138291,851408482,212.314,0,20,0,0,0,0,0,0,0,0,0,39,104.58,0,35.632,2.0873,0,0,0,0,1,1,0
138301,861408353,212.864,0,20,0,0,0,0,0,0,0,0,0,39,104.58,0,35.632,2.0873,0,0,0,0,1,1,0
138311,871409334,213.523,0,20,0,0,0,0,0,0,0,0,0,39,104.58,0,35.632,2.0873,0,0,0,0,1,1,0
138321,881408260,214.05,0,20,0,0,0,0,0,0,0,0,0,39,104.58,0,35.632,2.0873,0,0,0,0,1,1,0
138331,891408168,214.731,0,20,0,0,0,0,0,0,0,0,0,39,104.58,0,35.632,2.0873,0,0,0,0,1,1,0
138341,901409223,215.391,0,20,0,0,0,0,0,0,0,0,0,39,104.58,0,35.632,2.0873,0,0,0,0,1,1,0
138351,911408353,215.984,0,20,0,0,0,0,0,0,0,0,0,39,104.58,0,35.632,2.0873,0,0,0,0,1,1,0
138361,921408334,216.599,0,20,0,0,0,0,0,0,0,0,0,39,104.58,0,35.632,2.0873,0,0,0,0,1,1,0
138371,931432908,217.214,0,20,0,0,0,0,0,0,0,0,0,39,104.58,0,35.632,2.0873,0,0,0,0,1,1,0
138381,941416557,217.939,0,25,0,0,0,0,0,0,0,0,0,39,104.58,0,35.632,2.0873,0,0,0,0,1,1,0
138391,951402168,218.577,0,25,0,0,0,0,0,0,0,0,0,39,104.58,0,35.632,2.0873,0,0,0,0,1,1,0
138408,968543760,219.214,0,25,0,0,0,0,0,0,0,0,0,44,128.045,0,35.632,2.0873,0,0,0,0,1,1,0
138411,971404316,219.961,0,25,0,0,0,0,0,0,0,0,0,44,128.045,0,35.632,2.0873,0,0,0,0,1,1,0
138421,981404186,220.62,0,25,0,0,0,0,0,0,0,0,0,44,128.045,0,35.632,2.0873,0,0,0,0,1,1,0
138431,991404019,221.367,0,25,0,0,0,0,0,0,0,0,0,44,128.045,0,35.632,2.0873,0,0,0,0,1,1,0
138441,1001405538,222.114,0,25,0,0,0,0,0,0,0,0,0,44,128.045,0,35.632,2.0873,0,0,0,0,1,1,0
138451,1011404279,222.861,0,25,0,0,0,0,0,0,0,0,0,44,128.045,0,35.632,2.0873,0,0,0,0,1,1,0
138461,1021403816,223.674,0,25,0,0,0,0,0,0,0,0,0,44,128.045,0,35.632,2.0873,0,0,0,0,1,1,0
138471,1031403649,224.399,0,25,0,0,0,0,0,0,0,0,0,44,128.045,0,35.632,2.0873,0,0,0,0,1,1,0
138481,1041404908,225.146,0,25,0,0,0,0,0,0,0,0,0,44,128.045,0,35.632,2.0873,0,0,0,0,1,1,0
138491,1051403705,225.938,0,25,0,0,0,0,0,0,0,0,0,44,128.045,0,35.632,2.0873,0,0,0,0,1,1,0
138501,1061403593,226.707,0,25,0,0,0,0,0,0,0,0,0,44,128.045,0,35.632,2.0873,0,0,0,0,1,1,0
138511,1071403742,227.454,0,25,0,0,0,0,0,0,0,0,0,44,128.045,0,35.632,2.0873,0,0,0,0,1,1,0
138521,1081403668,228.201,0,25,0,0,0,0,0,0,0,0,0,44,128.045,0,35.632,2.0873,0,0,0,0,1,1,0
138531,1091403612,229.014,0,25,0,0,0,0,0,0,0,0,0,44,128.045,0,35.632,2.0873,0,0,0,0,1,1,0
138541,1101404093,229.827,0,25,0,0,0,0,0,0,0,0,0,44,128.045,0,35.632,2.0873,0,0,0,0,1,1,0
138551,1111403612,230.618,0,25,0,0,0,0,0,0,0,0,0,44,128.045,0,35.632,2.0873,0,0,0,0,1,1,0
138561,1121403427,231.321,0,25,0,0,0,0,0,0,0,0,0,44,128.045,0,35.632,2.0873,0,0,0,0,1,1,0
138571,1131404056,232.2,0,25,0,0,0,0,0,0,0,0,0,44,128.045,0,35.632,2.0873,0,0,0,0,1,1,0
138581,1141403390,232.947,0,25,0,0,0,0,0,0,0,0,0,44,128.045,0,35.632,2.0873,0,0,0,0,1,1,0
138591,1151403501,233.782,0,25,0,0,0,0,0,0,0,0,0,44,128.045,0,35.632,2.0873,0,0,0,0,1,1,0
138605,1165532871,234.595,0,25,0,0,0,0,0,0,0,0,0,49,160.222,0,35.632,2.0873,0,0,0,0,1,1,0
138611,1171403705,235.364,0,25,0,0,0,0,0,0,0,0,0,49,160.222,0,35.632,2.0873,0,0,0,0,1,1,0
138621,1181403205,236.265,0,25,0,0,0,0,0,0,0,0,0,49,160.222,0,35.632,2.0873,0,0,0,0,1,1,0
138631,1191403612,237.122,0,25,0,0,0,0,0,0,0,0,0,49,160.222,0,35.632,2.0873,0,0,0,0,1,1,0
138641,1201403279,238.022,0,25,0,0,0,0,0,0,0,0,0,49,160.222,0,35.632,2.0873,0,0,0,0,1,1,0
138651,1211403464,238.923,0,25,0,0,0,0,0,0,0,0,0,49,160.222,0,35.632,2.0873,0,0,0,0,1,1,0
138661,1221403001,239.912,0,25,0,0,0,0,0,0,0,0,0,49,160.222,0,35.632,2.0873,0,0,0,0,1,1,0
138671,1231412871,240.813,0,25,0,0,0,0,0,0,0,0,0,49,160.222,0,35.632,2.0873,0,0,0,0,1,1,0
138681,1241417353,241.802,0,25,0,0,0,0,0,0,0,0,0,49,160.222,0,35.632,2.0873,0,0,0,0,1,1,0
138691,1251402742,242.725,15.8047,30,0,0,0,0,0,0,0,0,0,49,160.222,0,35.632,2.0873,0,0,0,0,1,1,0
138701,1261401927,243.713,13.8135,30,0,0,0,0,0,0,0,0,0,49,160.222,0,35.632,2.0873,0,0,0,0,1,1,0
138711,1271406093,244.636,13.1192,30,0,0,0,0,0,0,0,0,0,49,160.222,0,35.632,2.0873,0,0,0,0,1,1,0
138721,1281403241,245.493,12.8771,30,0,0,0,0,0,0,0,0,0,49,160.222,0,35.632,2.0873,0,0,0,0,1,1,0
138731,1291403723,246.504,12.7927,30,0,0,0,0,0,0,0,0,0,49,160.222,0,35.632,2.0873,0,0,0,0,1,1,0
